运行#1,运行#1,运行#1,运行#1,运行#1,运行#1,运行#1,运行#1,运行#1,运行#1,运行#1,运行#1,运行#1
时间 (秒 s),角 (弧度 rad),角速度 (弧度/秒 rad/s),角加速度 (弧度/秒² rad/s²),位置 (米 m),速度 (米/秒 m/s),加速度 (米/秒² m/s²),角 (弧度 rad),角速度 (弧度/秒 rad/s),角加速度 (弧度/秒² rad/s²),位置 (米 m),速度 (米/秒 m/s),加速度 (米/秒² m/s²)
0.000,-0.013,,,-3.0000E-4,,,-0.003,,,-7.5000E-5,,
0.025,-0.041,-1.162,,-9.7500E-4,-0.028,,-0.008,-0.188,,-1.8750E-4,-0.004,
0.050,-0.071,-1.225,-2.513,-0.0017,-0.029,-0.060,-0.013,-0.220,-0.628,-3.0000E-4,-0.005,-0.015
0.075,-0.102,-1.288,-2.513,-0.0024,-0.031,-0.060,-0.019,-0.220,-1.665E-15,-4.5000E-4,-0.005,0.000
0.100,-0.135,-1.351,-1.885,-0.0032,-0.032,-0.045,-0.024,-0.220,-1.257,-5.6250E-4,-0.005,-0.030
0.125,-0.170,-1.382,-1.257,-0.0040,-0.033,-0.030,-0.030,-0.283,-1.885,-7.1250E-4,-0.007,-0.045
0.150,-0.204,-1.414,-1.257,-0.0049,-0.034,-0.030,-0.038,-0.314,-0.628,-9.0000E-4,-0.007,-0.015
0.175,-0.240,-1.445,-0.628,-0.0057,-0.035,-0.015,-0.046,-0.314,0.628,-0.0011,-0.008,0.015
0.200,-0.276,-1.445,0.628,-0.0066,-0.035,0.015,-0.053,-0.283,0.628,-0.0013,-0.007,0.015
0.225,-0.313,-1.414,0.628,-0.0075,-0.034,0.015,-0.060,-0.283,3.331E-15,-0.0014,-0.007,8.674E-17
0.250,-0.347,-1.414,3.109E-14,-0.0083,-0.034,6.939E-16,-0.068,-0.283,9.992E-15,-0.0016,-0.007,1.561E-16
0.275,-0.383,-1.414,1.257,-0.0091,-0.034,0.030,-0.074,-0.283,-3.331E-15,-0.0018,-0.007,-1.735E-16
0.300,-0.418,-1.351,2.513,-0.0100,-0.032,0.060,-0.082,-0.283,0.628,-0.0019,-0.007,0.015
0.325,-0.451,-1.288,2.513,-0.0108,-0.031,0.060,-0.088,-0.251,1.257,-0.0021,-0.006,0.030
0.350,-0.482,-1.225,1.885,-0.0115,-0.029,0.045,-0.094,-0.220,1.257,-0.0022,-0.005,0.030
0.375,-0.512,-1.194,2.513,-0.0122,-0.028,0.060,-0.099,-0.188,0.628,-0.0024,-0.005,0.015
0.400,-0.542,-1.100,3.770,-0.0129,-0.026,0.090,-0.104,-0.188,0.628,-0.0025,-0.005,0.015
0.425,-0.567,-1.005,3.142,-0.0135,-0.024,0.075,-0.108,-0.157,1.885,-0.0026,-0.004,0.045
0.450,-0.592,-0.942,3.770,-0.0141,-0.022,0.090,-0.112,-0.094,1.885,-0.0027,-0.002,0.045
0.475,-0.614,-0.817,5.027,-0.0147,-0.020,0.120,-0.113,-0.063,0.628,-0.0027,-0.002,0.015
0.500,-0.633,-0.691,4.398,-0.0151,-0.017,0.105,-0.115,-0.063,0.628,-0.0027,-0.002,0.015
0.525,-0.649,-0.597,4.398,-0.0155,-0.014,0.105,-0.116,-0.031,1.257,-0.0028,-7.500E-4,0.030
0.550,-0.663,-0.471,5.027,-0.0158,-0.011,0.120,-0.116,0.000,0.628,-0.0028,0.000,0.015
0.575,-0.672,-0.346,5.027,-0.0160,-0.008,0.120,-0.116,0.000,0.000,-0.0028,0.000,0.000
0.600,-0.680,-0.220,5.027,-0.0162,-0.005,0.120,-0.116,0.000,0.628,-0.0028,0.000,0.015
0.625,-0.683,-0.094,4.398,-0.0163,-0.002,0.105,-0.116,0.031,1.257,-0.0028,7.500E-4,0.030
0.650,-0.685,0.000,5.027,-0.0163,0.000,0.120,-0.115,0.063,1.257,-0.0027,0.002,0.030
0.675,-0.683,0.157,5.655,-0.0163,0.004,0.135,-0.113,0.094,1.257,-0.0027,0.002,0.030
0.700,-0.677,0.283,5.027,-0.0162,0.007,0.120,-0.110,0.126,1.257,-0.0026,0.003,0.030
0.725,-0.669,0.408,5.027,-0.0160,0.010,0.120,-0.107,0.157,1.257,-0.0026,0.004,0.030
0.750,-0.657,0.534,4.398,-0.0157,0.013,0.105,-0.102,0.188,0.628,-0.0024,0.005,0.015
0.775,-0.642,0.628,4.398,-0.0153,0.015,0.105,-0.097,0.188,0.628,-0.0023,0.005,0.015
0.800,-0.625,0.754,5.027,-0.0149,0.018,0.120,-0.093,0.220,1.885,-0.0022,0.005,0.045
0.825,-0.605,0.880,4.398,-0.0144,0.021,0.105,-0.086,0.283,1.257,-0.0021,0.007,0.030
0.850,-0.581,0.974,3.142,-0.0139,0.023,0.075,-0.079,0.283,1.332E-14,-0.0019,0.007,2.949E-16
0.875,-0.556,1.037,3.142,-0.0133,0.025,0.075,-0.072,0.283,0.628,-0.0017,0.007,0.015
0.900,-0.529,1.131,3.142,-0.0126,0.027,0.075,-0.064,0.314,0.628,-0.0015,0.007,0.015
0.925,-0.500,1.194,2.513,-0.0119,0.028,0.060,-0.057,0.314,-2.220E-15,-0.0014,0.007,0.000
0.950,-0.470,1.257,2.513,-0.0112,0.030,0.060,-0.049,0.314,-0.628,-0.0012,0.007,-0.015
0.975,-0.437,1.319,1.885,-0.0104,0.032,0.045,-0.041,0.283,-1.257,-9.7500E-4,0.007,-0.030
1.000,-0.404,1.351,1.885,-0.0096,0.032,0.045,-0.035,0.251,-1.257,-8.2500E-4,0.006,-0.030
1.025,-0.369,1.414,1.257,-0.0088,0.034,0.030,-0.028,0.220,-0.628,-6.7500E-4,0.005,-0.015
1.050,-0.333,1.414,0.000,-0.0079,0.034,0.000,-0.024,0.220,0.000,-5.6250E-4,0.005,0.000
1.075,-0.298,1.414,0.628,-0.0071,0.034,0.015,-0.017,0.220,-1.998E-14,-4.1250E-4,0.005,-4.684E-16
1.100,-0.262,1.445,1.066E-13,-0.0063,0.034,3.331E-15,-0.013,0.220,1.998E-14,-3.0000E-4,0.005,4.857E-16
1.125,-0.226,1.414,-0.628,-0.0054,0.034,-0.015,-0.006,0.220,-0.628,-1.5000E-4,0.005,-0.015
1.150,-0.192,1.414,-0.628,-0.0046,0.034,-0.015,-0.002,0.188,-0.628,-3.7500E-5,0.004,-0.015
1.175,-0.156,1.382,-1.885,-0.0037,0.033,-0.045,0.003,0.188,5.551E-16,7.5000E-5,0.004,-1.735E-17
1.200,-0.123,1.319,-1.885,-0.0029,0.031,-0.045,0.008,0.188,3.331E-14,1.8750E-4,0.004,7.980E-16
1.225,-0.090,1.288,-2.513,-0.0021,0.031,-0.060,0.013,0.188,-0.628,3.0000E-4,0.005,-0.015
1.250,-0.058,1.194,-3.770,-0.0014,0.028,-0.090,0.017,0.157,-1.257,4.1250E-4,0.004,-0.030
1.275,-0.030,1.100,-3.142,-7.1250E-4,0.026,-0.075,0.020,0.126,-0.628,4.8750E-4,0.003,-0.015
1.300,-0.003,1.037,-2.513,-7.5000E-5,0.025,-0.060,0.024,0.126,-0.628,5.6250E-4,0.003,-0.015
1.325,0.022,0.974,-3.142,5.2500E-4,0.023,-0.075,0.027,0.094,-1.257,6.3750E-4,0.002,-0.030
1.350,0.046,0.880,-5.027,0.0011,0.021,-0.120,0.028,0.063,-0.628,6.7500E-4,0.002,-0.015
1.375,0.066,0.723,-5.655,0.0016,0.017,-0.135,0.030,0.063,-0.628,7.1250E-4,0.001,-0.015
1.400,0.082,0.597,-3.770,0.0020,0.014,-0.090,0.031,0.031,-0.628,7.5000E-4,7.500E-4,-0.015
1.425,0.096,0.534,-3.770,0.0023,0.013,-0.090,0.031,0.031,-1.388E-15,7.5000E-4,7.500E-4,0.000
1.450,0.108,0.408,-5.655,0.0026,0.010,-0.135,0.033,0.031,-1.257,7.8750E-4,7.500E-4,-0.030
1.475,0.116,0.251,-5.655,0.0028,0.006,-0.135,0.033,-0.031,-1.257,7.8750E-4,-7.500E-4,-0.030
1.500,0.121,0.126,-5.027,0.0029,0.003,-0.120,0.031,-0.031,2.776E-15,7.5000E-4,-7.500E-4,6.722E-17
1.525,0.123,0.000,-5.027,0.0029,0.000,-0.120,0.031,-0.031,-1.257,7.5000E-4,-7.500E-4,-0.030
1.550,0.121,-0.126,-5.027,0.0029,-0.003,-0.120,0.030,-0.094,-1.885,7.1250E-4,-0.002,-0.045
1.575,0.116,-0.251,-5.655,0.0028,-0.006,-0.135,0.027,-0.126,-0.628,6.3750E-4,-0.003,-0.015
1.600,0.108,-0.408,-5.655,0.0026,-0.010,-0.135,0.024,-0.126,0.000,5.6250E-4,-0.003,0.000
1.625,0.096,-0.534,-4.398,0.0023,-0.013,-0.105,0.020,-0.126,-0.628,4.8750E-4,-0.003,-0.015
1.650,0.082,-0.628,-3.770,0.0020,-0.015,-0.090,0.017,-0.157,-0.628,4.1250E-4,-0.004,-0.015
1.675,0.064,-0.723,-4.398,0.0015,-0.017,-0.105,0.013,-0.157,0.000,3.0000E-4,-0.004,0.000
1.700,0.046,-0.848,-5.027,0.0011,-0.020,-0.120,0.009,-0.157,-0.628,2.2500E-4,-0.004,-0.015
1.725,0.022,-0.974,-3.770,5.2500E-4,-0.023,-0.090,0.005,-0.188,-0.628,1.1250E-4,-0.005,-0.015
1.750,-0.003,-1.037,-3.142,-7.5000E-5,-0.025,-0.075,5.204E-18,-0.188,-0.628,-5.6921E-19,-0.004,-0.015
1.775,-0.030,-1.131,-3.142,-7.1250E-4,-0.027,-0.075,-0.005,-0.220,-0.628,-1.1250E-4,-0.005,-0.015
1.800,-0.060,-1.194,-2.513,-0.0014,-0.028,-0.060,-0.011,-0.220,-1.110E-15,-2.6250E-4,-0.005,-1.735E-17
1.825,-0.090,-1.257,-2.513,-0.0021,-0.030,-0.060,-0.016,-0.220,-0.628,-3.7500E-4,-0.005,-0.015
1.850,-0.123,-1.319,-1.885,-0.0029,-0.032,-0.045,-0.022,-0.251,-0.628,-5.2500E-4,-0.006,-0.015
1.875,-0.156,-1.351,-1.885,-0.0037,-0.032,-0.045,-0.028,-0.251,-0.628,-6.7500E-4,-0.006,-0.015
1.900,-0.190,-1.414,-1.885,-0.0045,-0.034,-0.045,-0.035,-0.283,-1.257,-8.2500E-4,-0.007,-0.030
1.925,-0.226,-1.445,-0.628,-0.0054,-0.034,-0.015,-0.042,-0.314,-1.110E-15,-0.0010,-0.007,0.000
1.950,-0.262,-1.445,0.628,-0.0063,-0.034,0.015,-0.050,-0.283,0.628,-0.0012,-0.007,0.015
1.975,-0.298,-1.414,0.628,-0.0071,-0.034,0.015,-0.057,-0.283,-0.628,-0.0014,-0.007,-0.015
2.000,-0.333,-1.414,0.000,-0.0079,-0.034,0.000,-0.064,-0.314,0.000,-0.0015,-0.008,0.000
2.025,-0.369,-1.414,1.257,-0.0088,-0.034,0.030,-0.072,-0.283,1.257,-0.0017,-0.007,0.030
2.050,-0.404,-1.351,1.885,-0.0096,-0.032,0.045,-0.079,-0.251,0.628,-0.0019,-0.006,0.015
2.075,-0.437,-1.319,1.257,-0.0104,-0.031,0.030,-0.085,-0.251,-4.441E-14,-0.0020,-0.006,-9.888E-16
2.100,-0.470,-1.288,2.513,-0.0112,-0.031,0.060,-0.091,-0.251,0.628,-0.0022,-0.006,0.015
2.125,-0.501,-1.194,3.142,-0.0120,-0.029,0.075,-0.097,-0.220,1.257,-0.0023,-0.005,0.030
2.150,-0.529,-1.131,2.513,-0.0126,-0.027,0.060,-0.102,-0.188,1.257,-0.0024,-0.004,0.030
2.175,-0.558,-1.068,3.770,-0.0133,-0.025,0.090,-0.107,-0.157,1.257,-0.0026,-0.004,0.030
2.200,-0.583,-0.942,4.398,-0.0139,-0.023,0.105,-0.110,-0.126,1.257,-0.0026,-0.003,0.030
2.225,-0.605,-0.848,3.770,-0.0144,-0.020,0.090,-0.113,-0.094,1.257,-0.0027,-0.002,0.030
2.250,-0.625,-0.754,4.398,-0.0149,-0.018,0.105,-0.115,-0.063,1.257,-0.0027,-0.002,0.030
2.275,-0.642,-0.628,4.398,-0.0153,-0.015,0.105,-0.116,-0.031,1.257,-0.0028,-7.500E-4,0.030
2.300,-0.657,-0.534,4.398,-0.0157,-0.013,0.105,-0.116,0.000,0.628,-0.0028,0.000,0.015
2.325,-0.669,-0.408,5.027,-0.0160,-0.010,0.120,-0.116,0.000,0.000,-0.0028,0.000,0.000
2.350,-0.677,-0.283,5.027,-0.0162,-0.007,0.120,-0.116,0.000,0.628,-0.0028,0.000,0.015
2.375,-0.683,-0.157,5.027,-0.0163,-0.004,0.120,-0.116,0.031,1.257,-0.0028,7.500E-4,0.030
2.400,-0.685,-0.031,5.027,-0.0164,-7.500E-4,0.120,-0.115,0.063,0.628,-0.0027,0.002,0.015
2.425,-0.685,0.094,5.655,-0.0164,0.002,0.135,-0.113,0.063,0.628,-0.0027,0.002,0.015
2.450,-0.680,0.251,5.655,-0.0162,0.006,0.135,-0.112,0.094,1.885,-0.0027,0.002,0.045
2.475,-0.672,0.377,4.398,-0.0160,0.009,0.105,-0.108,0.157,1.257,-0.0026,0.004,0.030
2.500,-0.661,0.471,4.398,-0.0158,0.011,0.105,-0.104,0.157,0.628,-0.0025,0.004,0.015
2.525,-0.649,0.597,5.027,-0.0155,0.014,0.120,-0.101,0.188,1.885,-0.0024,0.004,0.045
2.550,-0.631,0.723,4.398,-0.0151,0.017,0.105,-0.094,0.251,0.628,-0.0023,0.006,0.015
2.575,-0.613,0.817,3.770,-0.0146,0.020,0.090,-0.088,0.220,5.551E-15,-0.0021,0.005,8.674E-17
2.600,-0.591,0.911,3.770,-0.0141,0.022,0.090,-0.083,0.251,1.885,-0.0020,0.006,0.045
2.625,-0.567,1.005,3.770,-0.0135,0.024,0.090,-0.075,0.314,1.257,-0.0018,0.008,0.030
2.650,-0.540,1.100,3.142,-0.0129,0.026,0.075,-0.068,0.314,-6.106E-14,-0.0016,0.007,-1.336E-15
2.675,-0.512,1.162,3.142,-0.0122,0.028,0.075,-0.060,0.314,5.329E-14,-0.0014,0.007,1.336E-15
2.700,-0.482,1.257,3.142,-0.0115,0.030,0.075,-0.052,0.314,5.551E-14,-0.0012,0.008,1.336E-15
2.725,-0.449,1.319,1.257,-0.0107,0.032,0.030,-0.044,0.314,-1.257,-0.0011,0.008,-0.030
2.750,-0.416,1.319,1.257,-0.0099,0.032,0.030,-0.036,0.251,-1.885,-8.6250E-4,0.006,-0.045
2.775,-0.383,1.382,1.885,-0.0091,0.033,0.045,-0.031,0.220,-0.628,-7.5000E-4,0.005,-0.015
2.800,-0.347,1.414,0.628,-0.0083,0.034,0.015,-0.025,0.220,3.775E-14,-6.0000E-4,0.005,9.368E-16
2.825,-0.313,1.414,2.398E-13,-0.0075,0.034,5.551E-15,-0.020,0.220,3.941E-14,-4.8750E-4,0.005,9.368E-16
2.850,-0.276,1.414,-2.220E-14,-0.0066,0.034,0.000,-0.014,0.220,0.000,-3.3750E-4,0.005,0.000
2.875,-0.242,1.414,0.628,-0.0058,0.034,0.015,-0.009,0.220,-3.941E-14,-2.2500E-4,0.005,-9.194E-16
2.900,-0.206,1.445,-2.531E-13,-0.0049,0.034,-5.551E-15,-0.003,0.220,-0.628,-7.5000E-5,0.005,-0.015
2.925,-0.170,1.414,-1.885,-0.0040,0.034,-0.045,0.002,0.188,-0.628,3.7500E-5,0.004,-0.015
2.950,-0.135,1.351,-3.142,-0.0032,0.032,-0.075,0.006,0.188,3.442E-14,1.5000E-4,0.005,7.806E-16
2.975,-0.102,1.257,-3.142,-0.0024,0.030,-0.075,0.011,0.188,-0.628,2.6250E-4,0.005,-0.015
3.000,-0.072,1.194,-1.257,-0.0017,0.028,-0.030,0.016,0.157,-1.257,3.7500E-4,0.004,-0.030
3.025,-0.042,1.194,-1.885,-0.0010,0.028,-0.045,0.019,0.126,-0.628,4.5000E-4,0.003,-0.015
3.050,-0.013,1.100,-4.398,-3.0000E-4,0.026,-0.105,0.022,0.126,-0.628,5.2500E-4,0.003,-0.015
3.075,0.013,0.974,-4.398,3.0000E-4,0.023,-0.105,0.025,0.094,-0.628,6.0000E-4,0.002,-0.015
3.100,0.036,0.880,-3.770,8.6250E-4,0.021,-0.090,0.027,0.094,1.388E-15,6.3750E-4,0.002,0.000
3.125,0.057,0.785,-3.770,0.0014,0.019,-0.090,0.030,0.094,-1.257,7.1250E-4,0.002,-0.030
3.150,0.075,0.691,-4.398,0.0018,0.016,-0.105,0.031,0.031,-1.257,7.5000E-4,7.500E-4,-0.030
3.175,0.091,0.565,-5.027,0.0022,0.013,-0.120,0.031,0.031,4.163E-15,7.5000E-4,7.500E-4,1.344E-16
3.200,0.104,0.440,-5.027,0.0025,0.011,-0.120,0.033,0.031,-1.257,7.8750E-4,7.500E-4,-0.030
3.225,0.113,0.314,-5.027,0.0027,0.008,-0.120,0.033,-0.031,-1.257,7.8750E-4,-7.500E-4,-0.030
3.250,0.119,0.188,-5.027,0.0029,0.004,-0.120,0.031,-0.031,5.551E-15,7.5000E-4,-7.500E-4,1.344E-16
3.275,0.123,0.063,-5.655,0.0029,0.001,-0.135,0.031,-0.031,-0.628,7.5000E-4,-7.500E-4,-0.015
3.300,0.123,-0.094,-5.655,0.0029,-0.002,-0.135,0.030,-0.063,-1.257,7.1250E-4,-0.002,-0.030
3.325,0.118,-0.220,-5.027,0.0028,-0.005,-0.120,0.028,-0.094,-1.257,6.7500E-4,-0.002,-0.030
3.350,0.112,-0.346,-5.027,0.0027,-0.008,-0.120,0.025,-0.126,-0.628,6.0000E-4,-0.003,-0.015
3.375,0.101,-0.471,-4.398,0.0024,-0.011,-0.105,0.022,-0.126,2.220E-14,5.2500E-4,-0.003,5.378E-16
3.400,0.088,-0.565,-4.398,0.0021,-0.013,-0.105,0.019,-0.126,-0.628,4.5000E-4,-0.003,-0.015
3.425,0.072,-0.691,-5.027,0.0017,-0.017,-0.120,0.016,-0.157,-1.257,3.7500E-4,-0.004,-0.030
3.450,0.053,-0.817,-4.398,0.0013,-0.020,-0.105,0.011,-0.188,-0.628,2.6250E-4,-0.005,-0.015
3.475,0.031,-0.911,-3.770,7.5000E-4,-0.022,-0.090,0.006,-0.188,-5.551E-16,1.5000E-4,-0.005,-1.735E-17
3.500,0.008,-1.005,-3.770,1.8750E-4,-0.024,-0.090,0.002,-0.188,-0.628,3.7500E-5,-0.005,-0.015
3.525,-0.019,-1.100,-3.142,-4.5000E-4,-0.026,-0.075,-0.003,-0.220,-0.628,-7.5000E-5,-0.005,-0.015
3.550,-0.047,-1.162,-2.513,-0.0011,-0.028,-0.060,-0.009,-0.220,-3.997E-14,-2.2500E-4,-0.005,-9.368E-16
3.575,-0.077,-1.225,-2.513,-0.0018,-0.029,-0.060,-0.014,-0.220,-3.941E-14,-3.3750E-4,-0.005,-9.541E-16
3.600,-0.108,-1.288,-2.513,-0.0026,-0.031,-0.060,-0.020,-0.220,4.108E-14,-4.8750E-4,-0.005,9.541E-16
3.625,-0.141,-1.351,-2.513,-0.0034,-0.032,-0.060,-0.025,-0.220,-1.257,-6.0000E-4,-0.005,-0.030
3.650,-0.176,-1.414,-1.885,-0.0042,-0.034,-0.045,-0.031,-0.283,-1.885,-7.5000E-4,-0.007,-0.045
3.675,-0.212,-1.445,-0.628,-0.0051,-0.035,-0.015,-0.039,-0.314,-5.107E-14,-9.3750E-4,-0.008,-1.197E-15
3.700,-0.248,-1.445,0.628,-0.0059,-0.035,0.015,-0.047,-0.283,0.628,-0.0011,-0.007,0.015
3.725,-0.284,-1.414,0.628,-0.0068,-0.034,0.015,-0.053,-0.283,-0.628,-0.0013,-0.007,-0.015
3.750,-0.319,-1.414,2.398E-13,-0.0076,-0.034,6.661E-15,-0.061,-0.314,4.996E-14,-0.0015,-0.007,1.197E-15
3.775,-0.355,-1.414,0.628,-0.0085,-0.034,0.015,-0.069,-0.283,0.628,-0.0017,-0.007,0.015
3.800,-0.390,-1.382,1.257,-0.0093,-0.033,0.030,-0.075,-0.283,-4.996E-14,-0.0018,-0.007,-1.197E-15
3.825,-0.424,-1.351,1.885,-0.0101,-0.032,0.045,-0.083,-0.283,1.257,-0.0020,-0.007,0.030
3.850,-0.457,-1.288,2.513,-0.0109,-0.031,0.060,-0.090,-0.220,1.257,-0.0021,-0.005,0.030
3.875,-0.489,-1.225,2.513,-0.0117,-0.029,0.060,-0.094,-0.220,3.886E-14,-0.0023,-0.005,9.368E-16
3.900,-0.518,-1.162,2.513,-0.0124,-0.028,0.060,-0.101,-0.220,1.257,-0.0024,-0.005,0.030
3.925,-0.547,-1.100,3.142,-0.0130,-0.026,0.075,-0.105,-0.157,1.885,-0.0025,-0.004,0.045
3.950,-0.573,-1.005,4.398,-0.0137,-0.024,0.105,-0.108,-0.126,1.257,-0.0026,-0.003,0.030
3.975,-0.597,-0.880,4.398,-0.0142,-0.021,0.105,-0.112,-0.094,1.257,-0.0027,-0.002,0.030
4.000,-0.617,-0.785,3.770,-0.0147,-0.019,0.090,-0.113,-0.063,0.628,-0.0027,-0.002,0.015
4.025,-0.636,-0.691,4.398,-0.0152,-0.017,0.105,-0.115,-0.063,0.628,-0.0027,-0.002,0.015
4.050,-0.652,-0.565,5.027,-0.0156,-0.014,0.120,-0.116,-0.031,1.257,-0.0028,-7.500E-4,0.030
4.075,-0.664,-0.440,4.398,-0.0159,-0.010,0.105,-0.116,0.000,0.628,-0.0028,0.000,0.015
4.100,-0.674,-0.346,4.398,-0.0161,-0.008,0.105,-0.116,0.000,0.000,-0.0028,0.000,0.000
4.125,-0.682,-0.220,5.655,-0.0163,-0.005,0.135,-0.116,0.000,0.628,-0.0028,0.000,0.015
4.150,-0.685,-0.063,5.655,-0.0164,-0.001,0.135,-0.116,0.031,1.257,-0.0028,7.500E-4,0.030
4.175,-0.685,0.063,5.027,-0.0164,0.001,0.120,-0.115,0.063,1.257,-0.0027,0.002,0.030
4.200,-0.682,0.188,5.027,-0.0163,0.005,0.120,-0.113,0.094,1.885,-0.0027,0.002,0.045
4.225,-0.675,0.314,5.027,-0.0161,0.008,0.120,-0.110,0.157,1.257,-0.0026,0.004,0.030
4.250,-0.666,0.440,4.398,-0.0159,0.011,0.105,-0.105,0.157,0.000,-0.0025,0.004,0.000
4.275,-0.653,0.534,4.398,-0.0156,0.013,0.105,-0.102,0.157,1.257,-0.0024,0.004,0.030
4.300,-0.639,0.660,5.027,-0.0153,0.016,0.120,-0.097,0.220,1.885,-0.0023,0.005,0.045
4.325,-0.620,0.785,4.398,-0.0148,0.019,0.105,-0.091,0.251,0.628,-0.0022,0.006,0.015
4.350,-0.600,0.880,3.770,-0.0143,0.021,0.090,-0.085,0.251,0.628,-0.0020,0.006,0.015
4.375,-0.576,0.974,3.770,-0.0138,0.023,0.090,-0.079,0.283,1.257,-0.0019,0.007,0.030
4.400,-0.551,1.068,3.770,-0.0132,0.026,0.090,-0.071,0.314,0.628,-0.0017,0.008,0.015
4.425,-0.523,1.162,2.513,-0.0125,0.028,0.060,-0.063,0.314,-2.287E-13,-0.0015,0.008,-5.326E-15
4.450,-0.493,1.194,1.885,-0.0118,0.028,0.045,-0.055,0.314,-3.331E-15,-0.0013,0.007,0.000
4.475,-0.463,1.257,3.142,-0.0111,0.030,0.075,-0.047,0.314,-0.628,-0.0011,0.008,-0.015
4.500,-0.430,1.351,2.513,-0.0103,0.032,0.060,-0.039,0.283,-1.885,-9.3750E-4,0.007,-0.045
4.525,-0.396,1.382,0.628,-0.0095,0.033,0.015,-0.033,0.220,-1.257,-7.8750E-4,0.005,-0.030
4.550,-0.361,1.382,0.628,-0.0086,0.033,0.015,-0.028,0.220,0.628,-6.7500E-4,0.005,0.015
4.575,-0.327,1.414,0.628,-0.0078,0.034,0.015,-0.022,0.251,-7.827E-14,-5.2500E-4,0.006,-1.874E-15
4.600,-0.291,1.414,-1.332E-14,-0.0069,0.034,0.000,-0.016,0.220,-0.628,-3.7500E-4,0.005,-0.015
4.625,-0.256,1.414,0.628,-0.0061,0.034,0.015,-0.011,0.220,1.560E-13,-2.6250E-4,0.005,3.747E-15
4.650,-0.220,1.445,-8.882E-15,-0.0053,0.035,4.163E-16,-0.005,0.220,-0.628,-1.1250E-4,0.005,-0.015
4.675,-0.184,1.414,-1.257,-0.0044,0.034,-0.030,3.123E-17,0.188,-0.628,-8.2670E-19,0.005,-0.015
4.700,-0.149,1.382,-1.885,-0.0036,0.033,-0.045,0.005,0.188,-0.628,1.1250E-4,0.004,-0.015
4.725,-0.115,1.319,-3.142,-0.0027,0.032,-0.075,0.009,0.157,-0.628,2.2500E-4,0.004,-0.015
4.750,-0.083,1.225,-2.513,-0.0020,0.029,-0.060,0.013,0.157,-5.496E-14,3.0000E-4,0.004,-1.336E-15
4.775,-0.053,1.194,-2.513,-0.0013,0.028,-0.060,0.017,0.157,-0.628,4.1250E-4,0.004,-0.015
4.800,-0.024,1.100,-3.770,-5.6250E-4,0.026,-0.090,0.020,0.126,-0.628,4.8750E-4,0.003,-0.015
4.825,0.002,1.005,-3.142,3.7500E-5,0.024,-0.075,0.024,0.126,-0.628,5.6250E-4,0.003,-0.015
4.850,0.027,0.942,-3.142,6.3750E-4,0.023,-0.075,0.027,0.094,-1.257,6.3750E-4,0.002,-0.030
4.875,0.049,0.848,-4.398,0.0012,0.020,-0.105,0.028,0.063,-0.628,6.7500E-4,0.002,-0.015
4.900,0.069,0.723,-5.027,0.0016,0.017,-0.120,0.030,0.063,-0.628,7.1250E-4,0.001,-0.015
4.925,0.085,0.597,-4.398,0.0020,0.014,-0.105,0.031,0.031,-0.628,7.5000E-4,7.500E-4,-0.015
4.950,0.099,0.503,-4.398,0.0024,0.012,-0.105,0.031,0.031,2.096E-14,7.5000E-4,7.500E-4,5.313E-16
4.975,0.110,0.377,-5.655,0.0026,0.009,-0.135,0.033,0.031,-1.257,7.8750E-4,7.500E-4,-0.030
5.000,0.118,0.220,-5.655,0.0028,0.005,-0.135,0.033,-0.031,-1.257,7.8750E-4,-7.500E-4,-0.030
5.025,0.121,0.094,-5.027,0.0029,0.002,-0.120,0.031,-0.031,-0.628,7.5000E-4,-7.500E-4,-0.015
5.050,0.123,-0.031,-5.027,0.0029,-7.500E-4,-0.120,0.031,-0.063,-1.257,7.5000E-4,-0.002,-0.030
5.075,0.119,-0.157,-5.027,0.0028,-0.004,-0.120,0.028,-0.094,-0.628,6.7500E-4,-0.002,-0.015
5.100,0.115,-0.283,-5.027,0.0027,-0.007,-0.120,0.027,-0.094,-0.628,6.3750E-4,-0.002,-0.015
5.125,0.105,-0.408,-5.027,0.0025,-0.010,-0.120,0.024,-0.126,-0.628,5.6250E-4,-0.003,-0.015
5.150,0.094,-0.534,-5.027,0.0022,-0.013,-0.120,0.020,-0.126,-0.628,4.8750E-4,-0.003,-0.015
5.175,0.079,-0.660,-4.398,0.0019,-0.016,-0.105,0.017,-0.157,-1.257,4.1250E-4,-0.004,-0.030
5.200,0.061,-0.754,-4.398,0.0015,-0.018,-0.105,0.013,-0.188,-0.628,3.0000E-4,-0.005,-0.015
5.225,0.041,-0.880,-4.398,9.7500E-4,-0.021,-0.105,0.008,-0.188,-5.551E-16,1.8750E-4,-0.005,-1.735E-17
5.250,0.017,-0.974,-3.770,4.1250E-4,-0.023,-0.090,0.003,-0.188,6.606E-14,7.5000E-5,-0.005,1.561E-15
5.275,-0.008,-1.068,-3.770,-1.8750E-4,-0.025,-0.090,-0.002,-0.188,-0.628,-3.7500E-5,-0.004,-0.015
5.300,-0.036,-1.162,-2.513,-8.6250E-4,-0.028,-0.060,-0.006,-0.220,-0.628,-1.5000E-4,-0.005,-0.015
5.325,-0.066,-1.194,-1.885,-0.0016,-0.029,-0.045,-0.013,-0.220,7.772E-14,-3.0000E-4,-0.005,1.908E-15
5.350,-0.096,-1.257,-2.513,-0.0023,-0.030,-0.060,-0.017,-0.220,0.000,-4.1250E-4,-0.005,1.735E-17
5.375,-0.129,-1.319,-2.513,-0.0031,-0.032,-0.060,-0.024,-0.220,-0.628,-5.6250E-4,-0.005,-0.015
5.400,-0.162,-1.382,-2.513,-0.0039,-0.033,-0.060,-0.028,-0.251,-1.885,-6.7500E-4,-0.006,-0.045
