515.0      461.0
515.1      431.0
515.2      339.7
515.3      168.4
515.4      94.0
515.5      85.4
515.6      102.5
515.7      101.6
515.8      110.0
515.9      103.4
516.0      105.0
516.1      98.5
516.2      99.5
516.3      92.9
516.4      92.5
516.5      89.3
516.6      107.2
516.7      109.8
516.8      95.4
516.9      95.2
517.0      79.5
517.1      83.8
517.2      82.9
517.3      83.0
517.4      92.0
517.5      92.9
517.6      89.5
517.7      85.8
517.8      89.5
517.9      83.9
518.0      94.9
518.1      107.2
518.2      104.0
518.3      109.0
518.4      104.5
518.5      94.2
518.6      102.5
518.7      92.9
518.8      100.5
518.9      91.3
519.0      104.0
519.1      81.5
519.2      95.2
519.3      83.5
519.4      83.9
519.5      93.9
519.6      86.5
519.7      100.3
519.8      91.6
519.9      99.2
520.0      106.1
520.1      113.1
520.2      108.2
520.3      106.5
520.4      99.6
520.5      100.0
520.6      117.0
520.7      103.0
520.8      124.5
520.9      105.5
521.0      132.5
521.1      134.6
521.2      135.5
521.3      137.0
521.4      135.0
521.5      117.0
521.6      114.1
521.7      111.0
521.8      101.5
521.9      113.0
522.0      103.9
522.1      111.5
522.2      101.2
522.3      111.1
522.4      103.5
522.5      111.5
522.6      103.4
522.7      116.1
522.8      110.0
522.9      118.0
523.0      113.9
523.1      111.5
523.2      126.5
523.3      126.4
523.4      129.6
523.5      121.8
523.6      121.9
523.7      120.5
523.8      128.0
523.9      124.7
524.0      131.9
524.1      130.0
524.2      144.5
524.3      150.1
524.4      181.1
524.5      207.8
524.6      252.8
524.7      358.3
524.8      545.0
524.9      727.9
525.0      774.0
525.1      793.4
525.2      661.7
525.3      483.6
525.4      362.9
525.5      294.9
525.6      259.2
525.7      233.1
525.8      223.7
525.9      231.0
526.0      215.5
526.1      219.2
526.2      193.3
526.3      195.5
526.4      180.3
526.5      190.1
526.6      199.9
526.7      200.5
526.8      216.0
526.9      216.9
527.0      233.1
527.1      272.4
527.2      321.8
527.3      439.6
527.4      598.3
527.5      816.8
527.6      1015.1
527.7      958.5
527.8      939.9
527.9      710.3
528.0      504.5
528.1      351.3
528.2      295.1
528.3      278.9
528.4      242.1
528.5      245.5
528.6      230.4
528.7      230.5
528.8      230.2
528.9      221.6
529.0      209.7
529.1      220.5
529.2      206.1
529.3      218.0
529.4      226.9
529.5      224.5
529.6      274.5
529.7      264.7
529.8      278.5
529.9      272.7
530.0      273.1
530.1      278.2
530.2      278.7
530.3      292.1
530.4      297.9
530.5      311.8
530.6      312.3
530.7      320.1
530.8      339.7
530.9      357.2
531.0      375.8
531.1      405.1
531.2      439.4
531.3      445.8
531.4      445.0
531.5      460.8
531.6      484.5
531.7      527.4
531.8      568.1
531.9      632.2
532.0      716.9
532.1      805.6
532.2      921.3
532.3      1008.5
532.4      1141.4
532.5      1270.4
532.6      1509.5
532.7      1756.8
532.8      2043.8
532.9      2373.6
533.0      2822.7
533.1      3382.5
533.2      3990.2
533.3      4598.2
533.4      5758.4
533.5      8970.9
533.6      34922.1
533.7      111597.6
533.8      214403.0
533.9      285453.1
534.0      269671.0
534.1      234258.5
534.2      122503.6
534.3      29628.2
534.4      14024.0
534.5      4544.2
534.6      4374.3
534.7      3696.3
534.8      3127.8
534.9      2665.5
535.0      2316.6
535.1      2081.1
535.2      1812.9
535.3      1561.0
535.4      1369.2
535.5      1217.5
535.6      1059.1
535.7      931.5
535.8      823.1
535.9      721.5
536.0      653.6
536.1      630.9
536.2      568.6
536.3      501.8
536.4      451.0
536.5      421.6
536.6      408.0
536.7      383.0
536.8      380.6
536.9      356.5
537.0      361.0
537.1      341.5
537.2      314.2
537.3      281.3
537.4      266.7
537.5      267.5
537.6      258.3
537.7      272.3
537.8      283.1
537.9      277.6
538.0      265.6
538.1      258.5
538.2      256.5
538.3      256.0
538.4      245.0
538.5      262.0
538.6      258.5
538.7      283.4
538.8      275.0
538.9      260.7
539.0      235.7
539.1      238.8
539.2      248.0
539.3      255.2
539.4      286.0
539.5      296.3
539.6      338.3
539.7      350.8
539.8      399.9
539.9      498.3
540.0      663.3
540.1      785.2
540.2      1183.4
540.3      1712.0
540.4      2166.6
540.5      1974.0
540.6      1797.4
540.7      1286.5
540.8      859.6
540.9      634.1
541.0      514.3
541.1      453.3
541.2      400.4
541.3      352.2
541.4      345.0
541.5      321.5
541.6      317.7
541.7      317.0
541.8      310.4
541.9      295.0
542.0      294.7
542.1      289.0
542.2      292.0
542.3      323.8
542.4      340.5
542.5      384.6
542.6      445.3
542.7      559.8
542.8      709.9
542.9      1031.8
543.0      1508.9
543.1      2034.8
543.2      2172.5
543.3      2320.0
543.4      1897.7
543.5      1316.1
543.6      817.5
543.7      541.0
543.8      407.1
543.9      324.3
544.0      271.1
544.1      242.8
544.2      227.2
544.3      204.3
544.4      191.7
544.5      195.5
544.6      173.0
544.7      182.5
544.8      159.5
544.9      171.2
545.0      166.0
545.1      154.5
545.2      147.5
545.3      141.0
545.4      144.5
545.5      141.9
545.6      143.5
545.7      144.1
545.8      151.8
545.9      155.0
546.0      152.5
546.1      151.0
546.2      144.8
546.3      138.2
546.4      139.7
546.5      143.5
546.6      150.0
546.7      153.9
546.8      158.8
546.9      163.4
547.0      161.4
547.1      169.2
547.2      197.1
547.3      234.4
547.4      257.8
547.5      284.5
547.6      309.6
547.7      309.1
547.8      293.3
547.9      255.8
548.0      219.0
548.1      180.9
548.2      168.8
548.3      156.7
548.4      143.5
548.5      142.0
548.6      128.5
548.7      136.0
548.8      137.1
548.9      135.0
549.0      125.3
549.1      118.5
549.2      110.0
549.3      117.5
549.4      111.9
549.5      117.4
549.6      120.9
549.7      128.7
549.8      135.5
549.9      129.2
550.0      118.1
550.1      113.5
550.2      116.9
550.3      113.5
550.4      110.7
550.5      114.8
550.6      104.0
550.7      113.1
550.8      110.8
550.9      108.0
551.0      134.0
551.1      108.5
551.2      121.9
551.3      110.0
551.4      119.5
551.5      117.0
551.6      120.6
551.7      108.0
551.8      112.5
551.9      106.5
552.0      110.1
552.1      101.9
552.2      110.1
552.3      103.5
552.4      113.1
552.5      105.0
552.6      108.1
552.7      107.5
552.8      117.5
552.9      109.8
553.0      112.5
553.1      108.2
553.2      111.0
553.3      104.4
553.4      112.5
553.5      110.3
553.6      114.3
553.7      114.5
553.8      110.5
553.9      105.4
554.0      113.9
554.1      102.5
554.2      122.1
554.3      107.4
554.4      104.3
554.5      105.0
554.6      107.1
554.7      109.0
554.8      115.0
554.9      104.4
555.0      109.0
555.1      104.0
555.2      111.9
555.3      105.5
555.4      110.5
555.5      119.9
555.6      145.3
555.7      141.0
555.8      159.5
555.9      157.1
556.0      183.6
556.1      200.9
556.2      216.9
556.3      251.5
556.4      316.8
556.5      380.4
556.6      407.1
556.7      423.5
556.8      459.2
556.9      456.0
557.0      441.2
557.1      429.5
557.2      386.0
557.3      413.5
557.4      404.8
557.5      429.8
557.6      444.1
557.7      454.5
557.8      446.0
557.9      396.3
558.0      345.9
558.1      297.8
558.2      270.7
558.3      235.7
558.4      205.7
558.5      164.6
558.6      140.9
558.7      129.5
558.8      123.5
558.9      127.0
559.0      122.1
559.1      127.5
559.2      113.1
559.3      99.8
559.4      97.4
559.5      101.5
559.6      107.1
559.7      103.5
559.8      82.5
559.9      98.5
560.0      82.5
560.1      91.4
560.2      92.7
560.3      89.0
560.4      92.8
560.5      90.1
560.6      96.9
560.7      95.0
560.8      102.5
560.9      93.0
561.0      94.8
561.1      84.1
561.2      86.5
561.3      89.5
561.4      91.0
561.5      88.3
561.6      88.0
561.7      76.2
561.8      82.0
561.9      81.0
562.0      84.0
562.1      82.3
562.2      91.7
562.3      101.8
562.4      97.7
562.5      86.0
562.6      80.6
562.7      87.0
562.8      89.4
562.9      83.0
563.0      80.0
563.1      78.6
563.2      75.5
563.3      90.5
563.4      69.0
563.5      88.5
563.6      63.5
563.7      94.5
563.8      72.0
563.9      89.5
564.0      83.9
564.1      85.0
564.2      93.5
564.3      78.0
564.4      89.0
564.5      80.8
564.6      84.0
564.7      85.3
564.8      86.5
564.9      74.0
565.0      85.0
