运行#1,运行#1,运行#1,运行#1,运行#1,运行#1,运行#1,运行#1,运行#1,运行#1,运行#1,运行#1,运行#1
时间 (秒 s),角 (弧度 rad),角速度 (弧度/秒 rad/s),角加速度 (弧度/秒² rad/s²),位置 (米 m),速度 (米/秒 m/s),加速度 (米/秒² m/s²),角 (弧度 rad),角速度 (弧度/秒 rad/s),角加速度 (弧度/秒² rad/s²),位置 (米 m),速度 (米/秒 m/s),加速度 (米/秒² m/s²)
0.000,-0.013,,,-3.0000E-4,,,0.000,,,0.0000,,
0.025,-0.086,-2.985,,-0.0021,-0.071,,-0.008,-0.314,,-1.8750E-4,-0.008,
0.050,-0.162,-3.079,-3.142,-0.0039,-0.073,-0.075,-0.016,-0.314,0.628,-3.7500E-4,-0.008,0.015
0.075,-0.240,-3.142,-1.885,-0.0057,-0.075,-0.045,-0.024,-0.283,1.257,-5.6250E-4,-0.007,0.030
0.100,-0.319,-3.173,-1.257,-0.0076,-0.076,-0.030,-0.030,-0.251,0.628,-7.1250E-4,-0.006,0.015
0.125,-0.399,-3.204,1.776E-14,-0.0095,-0.076,8.327E-16,-0.036,-0.251,0.628,-8.6250E-4,-0.006,0.015
0.150,-0.479,-3.173,1.885,-0.0114,-0.076,0.045,-0.042,-0.220,1.257,-0.0010,-0.005,0.030
0.175,-0.558,-3.110,1.885,-0.0133,-0.074,0.045,-0.047,-0.188,1.257,-0.0011,-0.004,0.030
0.200,-0.635,-3.079,2.513,-0.0151,-0.074,0.060,-0.052,-0.157,1.885,-0.0012,-0.004,0.045
0.225,-0.712,-2.985,4.398,-0.0170,-0.071,0.105,-0.055,-0.094,1.885,-0.0013,-0.002,0.045
0.250,-0.784,-2.859,5.027,-0.0187,-0.068,0.120,-0.057,-0.063,0.628,-0.0013,-0.001,0.015
0.275,-0.855,-2.733,6.283,-0.0204,-0.065,0.150,-0.058,-0.063,0.628,-0.0014,-0.001,0.015
0.300,-0.920,-2.545,7.540,-0.0220,-0.061,0.180,-0.060,-0.031,1.257,-0.0014,-7.500E-4,0.030
0.325,-0.982,-2.356,8.168,-0.0234,-0.056,0.195,-0.060,0.000,1.257,-0.0014,0.000,0.030
0.350,-1.038,-2.136,8.796,-0.0248,-0.051,0.210,-0.060,0.031,1.257,-0.0014,7.500E-4,0.030
0.375,-1.089,-1.916,9.425,-0.0260,-0.046,0.225,-0.058,0.063,0.628,-0.0014,0.002,0.015
0.400,-1.134,-1.665,10.681,-0.0271,-0.040,0.255,-0.057,0.063,0.628,-0.0013,0.001,0.015
0.425,-1.172,-1.382,10.681,-0.0280,-0.033,0.255,-0.055,0.094,1.257,-0.0013,0.002,0.030
0.450,-1.203,-1.131,11.310,-0.0287,-0.027,0.270,-0.052,0.126,0.628,-0.0012,0.003,0.015
0.475,-1.228,-0.817,12.566,-0.0293,-0.020,0.300,-0.049,0.126,1.257,-0.0012,0.003,0.030
0.500,-1.244,-0.503,11.310,-0.0297,-0.012,0.270,-0.046,0.188,1.885,-0.0011,0.004,0.045
0.525,-1.253,-0.251,11.310,-0.0299,-0.006,0.270,-0.039,0.220,1.257,-9.3750E-4,0.005,0.030
0.550,-1.257,0.063,12.566,-0.0300,0.002,0.300,-0.035,0.251,1.257,-8.2500E-4,0.006,0.030
0.575,-1.250,0.377,11.938,-0.0299,0.009,0.285,-0.027,0.283,0.628,-6.3750E-4,0.007,0.015
0.600,-1.238,0.660,11.938,-0.0295,0.016,0.285,-0.020,0.283,0.628,-4.8750E-4,0.007,0.015
0.625,-1.217,0.974,11.938,-0.0291,0.023,0.285,-0.013,0.314,1.257,-3.0000E-4,0.008,0.030
0.650,-1.189,1.257,11.310,-0.0284,0.030,0.270,-0.005,0.346,0.628,-1.1250E-4,0.008,0.015
0.675,-1.155,1.539,10.681,-0.0276,0.037,0.255,0.005,0.346,-2.220E-15,1.1250E-4,0.008,0.000
0.700,-1.112,1.791,9.425,-0.0266,0.043,0.225,0.013,0.346,-0.628,3.0000E-4,0.008,-0.015
0.725,-1.065,2.011,9.425,-0.0254,0.048,0.225,0.022,0.314,-1.885,5.2500E-4,0.008,-0.045
0.750,-1.012,2.262,8.796,-0.0242,0.054,0.210,0.028,0.251,-1.257,6.7500E-4,0.006,-0.030
0.775,-0.952,2.450,7.540,-0.0227,0.058,0.180,0.035,0.251,-1.110E-14,8.2500E-4,0.006,-2.602E-16
0.800,-0.889,2.639,6.912,-0.0212,0.063,0.165,0.041,0.251,-0.628,9.7500E-4,0.006,-0.015
0.825,-0.820,2.796,5.655,-0.0196,0.067,0.135,0.047,0.220,-0.628,0.0011,0.005,-0.015
0.850,-0.749,2.922,4.398,-0.0179,0.070,0.105,0.052,0.220,9.992E-15,0.0012,0.005,2.255E-16
0.875,-0.674,3.016,3.142,-0.0161,0.072,0.075,0.058,0.220,-0.628,0.0014,0.005,-0.015
0.900,-0.598,3.079,2.513,-0.0143,0.074,0.060,0.063,0.188,-0.628,0.0015,0.005,-0.015
0.925,-0.520,3.142,1.885,-0.0124,0.075,0.045,0.068,0.188,-1.110E-14,0.0016,0.004,-2.082E-16
0.950,-0.441,3.173,1.257,-0.0105,0.076,0.030,0.072,0.188,-0.628,0.0017,0.004,-0.015
0.975,-0.361,3.204,2.665E-13,-0.0086,0.077,7.216E-15,0.077,0.157,-1.257,0.0018,0.004,-0.030
1.000,-0.281,3.173,-1.885,-0.0067,0.076,-0.045,0.080,0.126,-0.628,0.0019,0.003,-0.015
1.025,-0.203,3.110,-2.513,-0.0048,0.074,-0.060,0.083,0.126,-0.628,0.0020,0.003,-0.015
1.050,-0.126,3.047,-3.770,-0.0030,0.073,-0.090,0.086,0.094,-1.257,0.0021,0.002,-0.030
1.075,-0.050,2.922,-5.027,-0.0012,0.070,-0.120,0.088,0.063,-0.628,0.0021,0.002,-0.015
1.100,0.020,2.796,-5.655,4.8750E-4,0.067,-0.135,0.090,0.063,-0.628,0.0021,0.002,-0.015
1.125,0.090,2.639,-8.168,0.0021,0.063,-0.195,0.091,0.031,-1.257,0.0022,7.500E-4,-0.030
1.150,0.152,2.388,-8.796,0.0036,0.057,-0.210,0.091,0.000,-0.628,0.0022,0.000,-0.015
1.175,0.209,2.199,-8.168,0.0050,0.052,-0.195,0.091,0.000,-0.628,0.0022,0.000,-0.015
1.200,0.262,1.979,-9.425,0.0063,0.047,-0.225,0.091,-0.031,-1.257,0.0022,-7.500E-4,-0.030
1.225,0.308,1.728,-10.681,0.0073,0.041,-0.255,0.090,-0.063,-1.257,0.0021,-0.002,-0.030
1.250,0.349,1.445,-11.938,0.0083,0.035,-0.285,0.088,-0.094,-1.257,0.0021,-0.002,-0.030
1.275,0.380,1.131,-11.310,0.0091,0.027,-0.270,0.085,-0.126,-0.628,0.0020,-0.003,-0.015
1.300,0.405,0.880,-10.681,0.0097,0.021,-0.255,0.082,-0.126,-0.628,0.0020,-0.003,-0.015
1.325,0.424,0.597,-12.566,0.0101,0.014,-0.300,0.079,-0.157,-0.628,0.0019,-0.004,-0.015
1.350,0.435,0.251,-13.195,0.0104,0.006,-0.315,0.074,-0.157,0.000,0.0018,-0.004,0.000
1.375,0.437,-0.063,-11.938,0.0104,-0.002,-0.285,0.071,-0.157,-1.257,0.0017,-0.004,-0.030
1.400,0.432,-0.346,-11.938,0.0103,-0.008,-0.285,0.066,-0.220,-1.257,0.0016,-0.005,-0.030
1.425,0.419,-0.660,-12.566,0.0100,-0.016,-0.300,0.060,-0.220,-2.776E-15,0.0014,-0.005,0.000
1.450,0.399,-0.974,-11.938,0.0095,-0.023,-0.285,0.055,-0.220,-0.628,0.0013,-0.005,-0.015
1.475,0.371,-1.257,-11.310,0.0088,-0.030,-0.270,0.049,-0.251,0.000,0.0012,-0.006,0.000
1.500,0.336,-1.539,-10.681,0.0080,-0.037,-0.255,0.042,-0.220,0.628,0.0010,-0.005,0.015
1.525,0.294,-1.791,-10.053,0.0070,-0.043,-0.240,0.038,-0.220,-0.628,9.0000E-4,-0.005,-0.015
1.550,0.247,-2.042,-9.425,0.0059,-0.049,-0.225,0.031,-0.251,-1.885,7.5000E-4,-0.006,-0.045
1.575,0.192,-2.262,-8.168,0.0046,-0.054,-0.195,0.025,-0.314,-1.257,6.0000E-4,-0.007,-0.030
1.600,0.134,-2.450,-8.168,0.0032,-0.058,-0.195,0.016,-0.314,0.000,3.7500E-4,-0.007,-3.469E-17
1.625,0.069,-2.670,-7.540,0.0016,-0.064,-0.180,0.009,-0.314,0.000,2.2500E-4,-0.007,-3.469E-17
1.650,1.388E-16,-2.827,-6.283,-3.9031E-18,-0.067,-0.150,-1.561E-17,-0.314,0.628,3.7947E-19,-0.007,0.015
1.675,-0.072,-2.985,-5.027,-0.0017,-0.071,-0.120,-0.006,-0.283,-2.220E-15,-1.5000E-4,-0.007,-1.735E-17
1.700,-0.149,-3.079,-2.513,-0.0036,-0.073,-0.060,-0.014,-0.314,-0.628,-3.3750E-4,-0.007,-0.015
1.725,-0.226,-3.110,-1.885,-0.0054,-0.074,-0.045,-0.022,-0.314,0.628,-5.2500E-4,-0.008,0.015
1.750,-0.305,-3.173,-1.885,-0.0073,-0.076,-0.045,-0.030,-0.283,1.885,-7.1250E-4,-0.007,0.045
1.775,-0.385,-3.204,5.418E-13,-0.0092,-0.076,1.332E-14,-0.036,-0.220,1.257,-8.6250E-4,-0.005,0.030
1.800,-0.465,-3.173,1.257,-0.0111,-0.076,0.030,-0.041,-0.220,0.000,-9.7500E-4,-0.005,0.000
1.825,-0.543,-3.142,1.885,-0.0130,-0.075,0.045,-0.047,-0.220,1.885,-0.0011,-0.005,0.045
1.850,-0.622,-3.079,3.142,-0.0149,-0.074,0.075,-0.052,-0.126,2.513,-0.0012,-0.003,0.060
1.875,-0.697,-2.985,3.770,-0.0167,-0.071,0.090,-0.053,-0.094,0.628,-0.0013,-0.002,0.015
1.900,-0.771,-2.890,4.398,-0.0184,-0.069,0.105,-0.057,-0.094,0.628,-0.0013,-0.002,0.015
1.925,-0.842,-2.765,6.283,-0.0201,-0.066,0.150,-0.058,-0.063,1.257,-0.0014,-0.001,0.030
1.950,-0.909,-2.576,7.540,-0.0217,-0.061,0.180,-0.060,-0.031,1.257,-0.0014,-7.500E-4,0.030
1.975,-0.971,-2.388,7.540,-0.0232,-0.057,0.180,-0.060,0.000,1.257,-0.0014,0.000,0.030
2.000,-1.029,-2.199,8.796,-0.0246,-0.053,0.210,-0.060,0.031,1.257,-0.0014,7.500E-4,0.030
2.025,-1.081,-1.948,10.053,-0.0258,-0.047,0.240,-0.058,0.063,0.628,-0.0014,0.002,0.015
2.050,-1.126,-1.696,10.053,-0.0269,-0.040,0.240,-0.057,0.063,-1.110E-14,-0.0013,0.001,-2.689E-16
2.075,-1.166,-1.445,10.681,-0.0278,-0.034,0.255,-0.055,0.063,0.628,-0.0013,0.001,0.015
2.100,-1.199,-1.162,11.310,-0.0286,-0.028,0.270,-0.053,0.094,1.885,-0.0013,0.002,0.045
2.125,-1.224,-0.880,11.310,-0.0292,-0.021,0.270,-0.050,0.157,1.885,-0.0012,0.004,0.045
2.150,-1.243,-0.597,11.938,-0.0297,-0.014,0.285,-0.046,0.188,1.257,-0.0011,0.004,0.030
2.175,-1.253,-0.283,12.566,-0.0299,-0.007,0.300,-0.041,0.220,1.257,-9.7500E-4,0.005,0.030
2.200,-1.257,0.031,11.938,-0.0300,7.500E-4,0.285,-0.035,0.251,0.628,-8.2500E-4,0.006,0.015
2.225,-1.252,0.314,11.938,-0.0299,0.008,0.285,-0.028,0.251,0.628,-6.7500E-4,0.006,0.015
2.250,-1.241,0.628,12.566,-0.0296,0.015,0.300,-0.022,0.283,1.257,-5.2500E-4,0.007,0.030
2.275,-1.221,0.942,11.310,-0.0291,0.022,0.270,-0.014,0.314,1.257,-3.3750E-4,0.007,0.030
2.300,-1.194,1.194,10.681,-0.0285,0.028,0.255,-0.006,0.346,0.628,-1.5000E-4,0.008,0.015
2.325,-1.161,1.477,11.310,-0.0277,0.035,0.270,0.003,0.346,5.995E-14,7.5000E-5,0.008,1.492E-15
2.350,-1.120,1.759,10.053,-0.0267,0.042,0.240,0.011,0.346,-6.217E-14,2.6250E-4,0.008,-1.527E-15
2.375,-1.073,1.979,8.796,-0.0256,0.047,0.210,0.020,0.346,-1.885,4.8750E-4,0.008,-0.045
2.400,-1.021,2.199,8.796,-0.0244,0.052,0.210,0.028,0.251,-2.513,6.7500E-4,0.006,-0.060
2.425,-0.963,2.419,8.168,-0.0230,0.058,0.195,0.033,0.220,4.441E-14,7.8750E-4,0.005,1.076E-15
2.450,-0.900,2.608,6.912,-0.0215,0.062,0.165,0.039,0.251,0.628,9.3750E-4,0.006,0.015
2.475,-0.833,2.765,5.655,-0.0199,0.066,0.135,0.046,0.251,-0.628,0.0011,0.006,-0.015
2.500,-0.762,2.890,4.398,-0.0182,0.069,0.105,0.052,0.220,-1.257,0.0012,0.005,-0.030
2.525,-0.688,2.985,3.770,-0.0164,0.071,0.090,0.057,0.188,3.886E-14,0.0013,0.004,9.368E-16
2.550,-0.613,3.079,3.770,-0.0146,0.074,0.090,0.061,0.220,0.628,0.0015,0.005,0.015
2.575,-0.534,3.173,1.885,-0.0127,0.076,0.045,0.068,0.220,-1.257,0.0016,0.005,-0.030
2.600,-0.454,3.173,-5.596E-13,-0.0108,0.076,-1.305E-14,0.072,0.157,-1.257,0.0017,0.004,-0.030
2.625,-0.375,3.173,0.628,-0.0090,0.076,0.015,0.075,0.157,-2.776E-14,0.0018,0.004,-5.811E-16
2.650,-0.295,3.204,-0.628,-0.0070,0.076,-0.015,0.080,0.157,-1.257,0.0019,0.004,-0.030
2.675,-0.215,3.142,-3.770,-0.0051,0.075,-0.090,0.083,0.094,-1.257,0.0020,0.002,-0.030
2.700,-0.138,3.016,-3.770,-0.0033,0.072,-0.090,0.085,0.094,0.000,0.0020,0.002,-8.674E-17
2.725,-0.064,2.953,-3.142,-0.0015,0.071,-0.075,0.088,0.094,-0.628,0.0021,0.002,-0.015
2.750,0.009,2.859,-6.283,2.2500E-4,0.068,-0.150,0.090,0.063,-1.257,0.0021,0.002,-0.030
2.775,0.079,2.639,-8.796,0.0019,0.063,-0.210,0.091,0.031,-1.257,0.0022,7.500E-4,-0.030
2.800,0.141,2.419,-8.168,0.0034,0.058,-0.195,0.091,0.000,-0.628,0.0022,0.000,-0.015
2.825,0.199,2.231,-7.540,0.0048,0.053,-0.180,0.091,0.000,-0.628,0.0022,0.000,-0.015
2.850,0.253,2.042,-8.796,0.0060,0.049,-0.210,0.091,-0.031,-1.257,0.0022,-7.500E-4,-0.030
2.875,0.302,1.791,-11.310,0.0072,0.043,-0.270,0.090,-0.063,-0.628,0.0021,-0.002,-0.015
2.900,0.342,1.477,-11.938,0.0082,0.035,-0.285,0.088,-0.063,-0.628,0.0021,-0.002,-0.015
2.925,0.375,1.194,-11.310,0.0090,0.029,-0.270,0.086,-0.094,-1.885,0.0021,-0.002,-0.045
2.950,0.402,0.911,-11.310,0.0096,0.022,-0.270,0.083,-0.157,-1.257,0.0020,-0.004,-0.030
2.975,0.421,0.628,-11.938,0.0101,0.015,-0.285,0.079,-0.157,2.776E-14,0.0019,-0.004,6.679E-16
3.000,0.434,0.314,-12.566,0.0104,0.007,-0.300,0.075,-0.157,-0.628,0.0018,-0.004,-0.015
3.025,0.437,0.000,-11.938,0.0104,0.000,-0.285,0.071,-0.188,-0.628,0.0017,-0.004,-0.015
3.050,0.434,-0.283,-11.938,0.0104,-0.007,-0.285,0.066,-0.188,-0.628,0.0016,-0.005,-0.015
3.075,0.423,-0.597,-12.566,0.0101,-0.014,-0.300,0.061,-0.220,-0.628,0.0015,-0.005,-0.015
3.100,0.404,-0.911,-12.566,0.0096,-0.022,-0.300,0.055,-0.220,0.000,0.0013,-0.005,0.000
3.125,0.377,-1.225,-11.938,0.0090,-0.029,-0.285,0.050,-0.220,-0.628,0.0012,-0.005,-0.015
3.150,0.342,-1.508,-10.681,0.0082,-0.036,-0.255,0.044,-0.251,-0.628,0.0011,-0.006,-0.015
3.175,0.302,-1.759,-9.425,0.0072,-0.042,-0.225,0.038,-0.251,-4.441E-14,9.0000E-4,-0.006,-1.076E-15
3.200,0.254,-1.979,-9.425,0.0061,-0.047,-0.225,0.031,-0.251,-0.628,7.5000E-4,-0.006,-0.015
3.225,0.203,-2.231,-9.425,0.0048,-0.053,-0.225,0.025,-0.283,-1.257,6.0000E-4,-0.007,-0.030
3.250,0.143,-2.450,-7.540,0.0034,-0.059,-0.180,0.017,-0.314,-0.628,4.1250E-4,-0.008,-0.015
3.275,0.080,-2.608,-6.912,0.0019,-0.062,-0.165,0.009,-0.314,0.628,2.2500E-4,-0.007,0.015
3.300,0.013,-2.796,-6.912,3.0000E-4,-0.067,-0.165,0.002,-0.283,0.628,3.7500E-5,-0.007,0.015
3.325,-0.060,-2.953,-5.027,-0.0014,-0.071,-0.120,-0.005,-0.283,-0.628,-1.1250E-4,-0.007,-0.015
3.350,-0.135,-3.047,-3.142,-0.0032,-0.073,-0.075,-0.013,-0.314,-0.628,-3.0000E-4,-0.008,-0.015
3.375,-0.212,-3.110,-2.513,-0.0051,-0.074,-0.060,-0.020,-0.314,0.628,-4.8750E-4,-0.007,0.015
3.400,-0.291,-3.173,-1.885,-0.0069,-0.076,-0.045,-0.028,-0.283,1.257,-6.7500E-4,-0.007,0.030
3.425,-0.371,-3.204,-5.862E-13,-0.0089,-0.077,-1.305E-14,-0.035,-0.251,1.257,-8.2500E-4,-0.006,0.030
3.450,-0.451,-3.173,1.257,-0.0108,-0.076,0.030,-0.041,-0.220,1.257,-9.7500E-4,-0.005,0.030
3.475,-0.529,-3.142,1.257,-0.0126,-0.075,0.030,-0.046,-0.188,1.257,-0.0011,-0.005,0.030
3.500,-0.608,-3.110,2.513,-0.0145,-0.074,0.060,-0.050,-0.157,1.257,-0.0012,-0.004,0.030
3.525,-0.685,-3.016,3.770,-0.0164,-0.072,0.090,-0.053,-0.126,1.257,-0.0013,-0.003,0.030
3.550,-0.759,-2.922,4.398,-0.0181,-0.070,0.105,-0.057,-0.094,1.885,-0.0013,-0.002,0.045
3.575,-0.831,-2.796,6.283,-0.0198,-0.067,0.150,-0.058,-0.031,1.257,-0.0014,-7.500E-4,0.030
3.600,-0.898,-2.608,7.540,-0.0215,-0.062,0.180,-0.058,-0.031,5.551E-15,-0.0014,-7.500E-4,1.344E-16
3.625,-0.961,-2.419,7.540,-0.0230,-0.058,0.180,-0.060,-0.031,1.257,-0.0014,-7.500E-4,0.030
3.650,-1.019,-2.231,8.168,-0.0243,-0.053,0.195,-0.060,0.031,1.257,-0.0014,7.500E-4,0.030
3.675,-1.073,-2.011,10.053,-0.0256,-0.048,0.240,-0.058,0.031,0.628,-0.0014,7.500E-4,0.015
3.700,-1.120,-1.728,10.681,-0.0267,-0.041,0.255,-0.058,0.063,1.257,-0.0014,0.002,0.030
3.725,-1.159,-1.477,10.053,-0.0277,-0.035,0.240,-0.055,0.094,0.628,-0.0013,0.002,0.015
3.750,-1.194,-1.225,10.681,-0.0285,-0.029,0.255,-0.053,0.094,0.628,-0.0013,0.002,0.015
3.775,-1.221,-0.942,11.938,-0.0291,-0.022,0.285,-0.050,0.126,1.257,-0.0012,0.003,0.030
3.800,-1.241,-0.628,12.566,-0.0296,-0.015,0.300,-0.047,0.157,1.885,-0.0011,0.004,0.045
3.825,-1.252,-0.314,11.938,-0.0299,-0.008,0.285,-0.042,0.220,1.885,-0.0010,0.005,0.045
3.850,-1.257,-0.031,11.310,-0.0300,-7.500E-4,0.270,-0.036,0.251,1.257,-8.6250E-4,0.006,0.030
3.875,-1.253,0.251,11.938,-0.0299,0.006,0.285,-0.030,0.283,0.628,-7.1250E-4,0.007,0.015
3.900,-1.244,0.565,12.566,-0.0297,0.013,0.300,-0.022,0.283,0.628,-5.2500E-4,0.007,0.015
3.925,-1.225,0.880,11.938,-0.0293,0.021,0.285,-0.016,0.314,1.257,-3.7500E-4,0.008,0.030
3.950,-1.200,1.162,11.310,-0.0287,0.028,0.270,-0.006,0.346,0.628,-1.5000E-4,0.008,0.015
3.975,-1.167,1.445,10.681,-0.0279,0.035,0.255,0.002,0.346,-6.106E-14,3.7500E-5,0.008,-1.492E-15
4.000,-1.128,1.696,10.053,-0.0269,0.040,0.240,0.011,0.346,-0.628,2.6250E-4,0.008,-0.015
4.025,-1.082,1.948,9.425,-0.0258,0.047,0.225,0.019,0.314,-1.257,4.5000E-4,0.008,-0.030
4.050,-1.030,2.168,8.796,-0.0246,0.052,0.210,0.027,0.283,-1.885,6.3750E-4,0.007,-0.045
4.075,-0.974,2.388,8.168,-0.0233,0.057,0.195,0.033,0.220,-1.257,7.8750E-4,0.005,-0.030
4.100,-0.911,2.576,6.912,-0.0218,0.061,0.165,0.038,0.220,0.628,9.0000E-4,0.005,0.015
4.125,-0.845,2.733,5.655,-0.0202,0.065,0.135,0.044,0.251,0.628,0.0011,0.006,0.015
4.150,-0.774,2.859,5.027,-0.0185,0.068,0.120,0.050,0.251,-0.628,0.0012,0.006,-0.015
4.175,-0.702,2.985,5.027,-0.0168,0.071,0.120,0.057,0.220,-1.257,0.0013,0.005,-0.030
4.200,-0.625,3.110,3.142,-0.0149,0.074,0.075,0.061,0.188,-0.628,0.0015,0.005,-0.015
4.225,-0.547,3.142,0.628,-0.0130,0.075,0.015,0.066,0.188,-2.776E-15,0.0016,0.005,0.000
4.250,-0.468,3.142,0.628,-0.0112,0.075,0.015,0.071,0.188,-0.628,0.0017,0.005,-0.015
4.275,-0.390,3.173,1.885,-0.0093,0.076,0.045,0.075,0.157,-1.257,0.0018,0.004,-0.030
4.300,-0.309,3.236,-0.628,-0.0074,0.077,-0.015,0.079,0.126,-0.628,0.0019,0.003,-0.015
4.325,-0.228,3.142,-4.398,-0.0054,0.075,-0.105,0.082,0.126,0.000,0.0020,0.003,0.000
4.350,-0.152,3.016,-3.142,-0.0036,0.072,-0.075,0.085,0.126,-0.628,0.0020,0.003,-0.015
4.375,-0.077,2.985,-3.142,-0.0018,0.071,-0.075,0.088,0.094,-1.257,0.0021,0.002,-0.030
4.400,-0.003,2.859,-6.283,-7.5000E-5,0.068,-0.150,0.090,0.063,-1.257,0.0021,0.002,-0.030
4.425,0.066,2.670,-7.540,0.0016,0.064,-0.180,0.091,0.031,-1.257,0.0022,7.500E-4,-0.030
4.450,0.130,2.482,-7.540,0.0031,0.059,-0.180,0.091,0.000,-0.628,0.0022,0.000,-0.015
4.475,0.190,2.293,-8.168,0.0045,0.055,-0.195,0.091,0.000,-0.628,0.0022,0.000,-0.015
4.500,0.245,2.073,-10.053,0.0059,0.050,-0.240,0.091,-0.031,-1.257,0.0022,-7.500E-4,-0.030
4.525,0.294,1.791,-10.681,0.0070,0.043,-0.255,0.090,-0.063,-0.628,0.0021,-0.001,-0.015
4.550,0.335,1.539,-10.053,0.0080,0.037,-0.240,0.088,-0.063,-0.628,0.0021,-0.001,-0.015
4.575,0.371,1.288,-11.310,0.0089,0.031,-0.270,0.086,-0.094,-1.257,0.0021,-0.002,-0.030
4.600,0.399,0.974,-12.566,0.0095,0.023,-0.300,0.083,-0.126,-1.257,0.0020,-0.003,-0.030
4.625,0.419,0.660,-11.938,0.0100,0.016,-0.285,0.080,-0.157,-0.628,0.0019,-0.004,-0.015
4.650,0.432,0.377,-11.938,0.0103,0.009,-0.285,0.075,-0.157,0.000,0.0018,-0.004,0.000
4.675,0.438,0.063,-12.566,0.0105,0.002,-0.300,0.072,-0.157,-1.257,0.0017,-0.004,-0.030
4.700,0.435,-0.251,-12.566,0.0104,-0.006,-0.300,0.068,-0.220,-1.257,0.0016,-0.005,-0.030
4.725,0.426,-0.565,-12.566,0.0102,-0.014,-0.300,0.061,-0.220,-2.776E-15,0.0015,-0.005,0.000
4.750,0.407,-0.880,-11.310,0.0097,-0.021,-0.270,0.057,-0.220,7.827E-14,0.0013,-0.005,1.874E-15
4.775,0.382,-1.131,-11.310,0.0091,-0.027,-0.270,0.050,-0.220,0.000,0.0012,-0.005,0.000
4.800,0.350,-1.445,-11.938,0.0084,-0.035,-0.285,0.046,-0.220,-0.628,0.0011,-0.005,-0.015
4.825,0.309,-1.728,-10.053,0.0074,-0.041,-0.240,0.039,-0.251,-0.628,9.3750E-4,-0.006,-0.015
4.850,0.264,-1.948,-9.425,0.0063,-0.046,-0.225,0.033,-0.251,-0.628,7.8750E-4,-0.006,-0.015
4.875,0.212,-2.199,-9.425,0.0051,-0.053,-0.225,0.027,-0.283,-1.257,6.3750E-4,-0.007,-0.030
4.900,0.154,-2.419,-7.540,0.0037,-0.058,-0.180,0.019,-0.314,-0.628,4.5000E-4,-0.008,-0.015
4.925,0.091,-2.576,-6.912,0.0022,-0.062,-0.165,0.011,-0.314,-1.110E-15,2.6250E-4,-0.008,0.000
4.950,0.025,-2.765,-6.912,6.0000E-4,-0.066,-0.165,0.003,-0.314,0.000,7.5000E-5,-0.008,0.000
4.975,-0.047,-2.922,-5.027,-0.0011,-0.070,-0.120,-0.005,-0.314,0.628,-1.1250E-4,-0.008,0.015
5.000,-0.121,-3.016,-3.770,-0.0029,-0.072,-0.090,-0.013,-0.283,0.628,-3.0000E-4,-0.007,0.015
5.025,-0.198,-3.110,-3.142,-0.0047,-0.074,-0.075,-0.019,-0.283,1.110E-15,-4.5000E-4,-0.007,0.000
5.050,-0.276,-3.173,-1.885,-0.0066,-0.076,-0.045,-0.027,-0.283,0.628,-6.3750E-4,-0.007,0.015
5.075,-0.357,-3.204,-0.628,-0.0085,-0.077,-0.015,-0.033,-0.251,0.628,-7.8750E-4,-0.006,0.015
5.100,-0.437,-3.204,0.628,-0.0104,-0.076,0.015,-0.039,-0.251,0.628,-9.3750E-4,-0.006,0.015
5.125,-0.517,-3.173,1.885,-0.0123,-0.076,0.045,-0.046,-0.220,1.885,-0.0011,-0.005,0.045
5.150,-0.595,-3.110,3.142,-0.0142,-0.074,0.075,-0.050,-0.157,2.513,-0.0012,-0.004,0.060
5.175,-0.672,-3.016,3.770,-0.0160,-0.072,0.090,-0.053,-0.094,1.257,-0.0013,-0.002,0.030
5.200,-0.746,-2.922,3.770,-0.0178,-0.070,0.090,-0.055,-0.094,0.628,-0.0013,-0.002,0.015
5.225,-0.818,-2.827,5.027,-0.0195,-0.068,0.120,-0.058,-0.063,1.257,-0.0014,-0.002,0.030
5.250,-0.888,-2.670,6.912,-0.0212,-0.064,0.165,-0.058,-0.031,0.628,-0.0014,-7.500E-4,0.015
5.275,-0.952,-2.482,8.168,-0.0227,-0.059,0.195,-0.060,-0.031,1.257,-0.0014,-7.500E-4,0.030
5.300,-1.012,-2.262,9.425,-0.0241,-0.054,0.225,-0.060,0.031,1.257,-0.0014,7.500E-4,0.030
5.325,-1.065,-2.011,9.425,-0.0254,-0.048,0.225,-0.058,0.031,-1.110E-14,-0.0014,7.500E-4,-2.667E-16
5.350,-1.112,-1.791,9.425,-0.0265,-0.043,0.225,-0.058,0.031,1.257,-0.0014,7.500E-4,0.030
5.375,-1.155,-1.539,10.681,-0.0276,-0.037,0.255,-0.057,0.094,1.257,-0.0013,0.002,0.030
5.400,-1.189,-1.257,11.310,-0.0284,-0.030,0.270,-0.053,0.094,0.628,-0.0013,0.002,0.015
5.425,-1.217,-0.974,11.310,-0.0291,-0.023,0.270,-0.052,0.126,1.885,-0.0012,0.003,0.045
5.450,-1.238,-0.691,11.938,-0.0295,-0.017,0.285,-0.047,0.188,1.257,-0.0011,0.005,0.030
5.475,-1.252,-0.377,12.566,-0.0299,-0.009,0.300,-0.042,0.188,1.257,-0.0010,0.005,0.030
5.500,-1.257,-0.063,11.938,-0.0300,-0.002,0.285,-0.038,0.251,1.885,-9.0000E-4,0.006,0.045
5.525,-1.255,0.220,11.310,-0.0300,0.005,0.270,-0.030,0.283,0.628,-7.1250E-4,0.007,0.015
